Time - Plot 0	Amplitude - Plot 0	
0	0.184875	
4E-8	0.184967	
8E-8	0.185089	
1.2E-7	0.185181	
1.6E-7	0.185303	
2E-7	0.185394	
2.4E-7	0.185516	
2.8E-7	0.185608	
3.2E-7	0.185699	
3.6E-7	0.185822	
4E-7	0.185913	
4.4E-7	0.186035	
4.8E-7	0.186127	
5.2E-7	0.186218	
5.6E-7	0.18634	
6E-7	0.186432	
6.4E-7	0.186554	
6.8E-7	0.186646	
7.2E-7	0.186737	
7.6E-7	0.186859	
8E-7	0.186951	
8.4E-7	0.187042	
8.8E-7	0.187164	
9.2E-7	0.187256	
9.6E-7	0.187378	
1E-6	0.187469	
1.04E-6	0.187561	
1.08E-6	0.187683	
1.12E-6	0.187775	
1.16E-6	0.187866	
1.2E-6	0.187988	
1.24E-6	0.18808	
1.28E-6	0.188171	
1.32E-6	0.188293	
1.36E-6	0.188385	
1.4E-6	0.188477	
1.44E-6	0.188599	
1.48E-6	0.18869	
1.52E-6	0.188812	
1.56E-6	0.188904	
1.6E-6	0.188995	
1.64E-6	0.189117	
1.68E-6	0.189209	
1.72E-6	0.189301	
1.76E-6	0.189423	
1.8E-6	0.189514	
1.84E-6	0.189606	
1.88E-6	0.189728	
1.92E-6	0.189819	
1.96E-6	0.189911	
2E-6	0.190033	
2.04E-6	0.190125	
2.08E-6	0.190216	
2.12E-6	0.190338	
2.16E-6	0.19043	
2.2E-6	0.190521	
2.24E-6	0.190643	
2.28E-6	0.190735	
2.32E-6	0.190826	
2.36E-6	0.190918	
2.4E-6	0.19104	
2.44E-6	0.191132	
2.48E-6	0.191223	
2.52E-6	0.191345	
2.56E-6	0.191437	
2.6E-6	0.191528	
2.64E-6	0.19162	
2.68E-6	0.191742	
2.72E-6	0.191833	
2.76E-6	0.191925	
2.8E-6	0.192047	
2.84E-6	0.192139	
2.88E-6	0.19223	
2.92E-6	0.192322	
2.96E-6	0.192444	
3E-6	0.192535	
3.04E-6	0.192627	
3.08E-6	0.192719	
3.12E-6	0.192841	
3.16E-6	0.192932	
3.2E-6	0.193024	
3.24E-6	0.193115	
3.28E-6	0.193237	
3.32E-6	0.193329	
3.36E-6	0.19342	
3.4E-6	0.193512	
3.44E-6	0.193634	
3.48E-6	0.193726	
3.52E-6	0.193817	
3.56E-6	0.193909	
3.6E-6	0.194	
3.64E-6	0.194122	
3.68E-6	0.194214	
3.72E-6	0.194305	
3.76E-6	0.194397	
3.8E-6	0.194519	
3.84E-6	0.194611	
3.88E-6	0.194702	
3.92E-6	0.194794	
3.96E-6	0.194885	
4E-6	0.195007	
4.04E-6	0.195099	
4.08E-6	0.19519	
4.12E-6	0.195282	
4.16E-6	0.195374	
4.2E-6	0.195496	
4.24E-6	0.195587	
4.28E-6	0.195679	
4.32E-6	0.19577	
4.36E-6	0.195862	
4.4E-6	0.195953	
4.44E-6	0.196075	
4.48E-6	0.196167	
4.52E-6	0.196259	
4.56E-6	0.19635	
4.6E-6	0.196442	
4.64E-6	0.196533	
4.68E-6	0.196655	
4.72E-6	0.196747	
4.76E-6	0.196838	
4.8E-6	0.19693	
4.84E-6	0.197021	
4.88E-6	0.197113	
4.92E-6	0.197235	
4.96E-6	0.197327	
5E-6	0.197418	
5.04E-6	0.19751	
5.08E-6	0.197601	
5.12E-6	0.197693	
5.16E-6	0.197784	
5.2E-6	0.197906	
5.24E-6	0.197998	
5.28E-6	0.19809	
5.32E-6	0.198181	
5.36E-6	0.198273	
5.4E-6	0.198364	
5.44E-6	0.198456	
5.48E-6	0.198547	
5.52E-6	0.198669	
5.56E-6	0.198761	
5.6E-6	0.198853	
5.64E-6	0.198944	
5.68E-6	0.199036	
5.72E-6	0.199127	
5.76E-6	0.199219	
5.8E-6	0.19931	
5.84E-6	0.199402	
5.88E-6	0.199524	
5.92E-6	0.199615	
5.96E-6	0.199707	
6E-6	0.199799	
6.04E-6	0.19989	
6.08E-6	0.199982	
6.12E-6	0.200073	
6.16E-6	0.200165	
6.2E-6	0.200256	
6.24E-6	0.200348	
6.28E-6	0.200439	
6.32E-6	0.200531	
6.36E-6	0.200653	
6.4E-6	0.200745	
6.44E-6	0.200836	
6.48E-6	0.200928	
6.52E-6	0.201019	
6.56E-6	0.201111	
6.6E-6	0.201202	
6.64E-6	0.201294	
6.68E-6	0.201385	
6.72E-6	0.201477	
6.76E-6	0.201569	
6.8E-6	0.20166	
6.84E-6	0.201752	
6.88E-6	0.201843	
6.92E-6	0.201935	
6.96E-6	0.202026	
7E-6	0.202118	
7.04E-6	0.202209	
7.08E-6	0.202301	
7.12E-6	0.202423	
7.16E-6	0.202515	
7.2E-6	0.202606	
7.24E-6	0.202698	
7.28E-6	0.202789	
7.32E-6	0.202881	
7.36E-6	0.202972	
7.4E-6	0.203064	
7.44E-6	0.203156	
7.48E-6	0.203247	
7.52E-6	0.203339	
7.56E-6	0.20343	
7.6E-6	0.203522	
7.64E-6	0.203613	
7.68E-6	0.203705	
7.72E-6	0.203796	
7.76E-6	0.203888	
7.8E-6	0.203979	
7.84E-6	0.204071	
7.88E-6	0.204163	
7.92E-6	0.204254	
7.96E-6	0.204346	
8E-6	0.204437	
8.04E-6	0.204529	
8.08E-6	0.20462	
8.12E-6	0.204712	
8.16E-6	0.204803	
8.2E-6	0.204895	
8.24E-6	0.204987	
8.28E-6	0.205078	
8.32E-6	0.20517	
8.36E-6	0.205261	
8.4E-6	0.205353	
8.44E-6	0.205444	
8.48E-6	0.205536	
8.52E-6	0.205627	
8.56E-6	0.205719	
8.6E-6	0.205811	
8.64E-6	0.205902	
8.68E-6	0.205994	
8.72E-6	0.206085	
8.76E-6	0.206146	
8.8E-6	0.206238	
8.84E-6	0.206329	
8.88E-6	0.206421	
8.92E-6	0.206512	
8.96E-6	0.206604	
9E-6	0.206696	
9.04E-6	0.206787	
9.08E-6	0.206879	
9.12E-6	0.20697	
9.16E-6	0.207062	
9.2E-6	0.207153	
9.24E-6	0.207245	
9.28E-6	0.207336	
9.32E-6	0.207428	
9.36E-6	0.20752	
9.4E-6	0.207611	
9.44E-6	0.207703	
9.48E-6	0.207794	
9.52E-6	0.207886	
9.56E-6	0.207977	
9.6E-6	0.208038	
9.64E-6	0.20813	
9.68E-6	0.208221	
9.72E-6	0.208313	
9.76E-6	0.208405	
9.8E-6	0.208496	
9.84E-6	0.208588	
9.88E-6	0.208679	
9.92E-6	0.208771	
9.96E-6	0.208862	
1E-5	0.208954	
1.004E-5	0.209045	
1.008E-5	0.209137	
1.012E-5	0.209198	
1.016E-5	0.20929	
1.02E-5	0.209381	
1.024E-5	0.209473	
1.028E-5	0.209564	
1.032E-5	0.209656	
1.036E-5	0.209747	
1.04E-5	0.209839	
1.044E-5	0.20993	
1.048E-5	0.209991	
1.052E-5	0.210083	
1.056E-5	0.210175	
1.06E-5	0.210266	
1.064E-5	0.210358	
1.068E-5	0.210449	
1.072E-5	0.210541	
1.076E-5	0.210632	
1.08E-5	0.210693	
1.084E-5	0.210785	
1.088E-5	0.210876	
1.092E-5	0.210968	
1.096E-5	0.21106	
1.1E-5	0.211151	
1.104E-5	0.211243	
1.108E-5	0.211304	
1.112E-5	0.211395	
1.116E-5	0.211487	
1.12E-5	0.211578	
1.124E-5	0.21167	
1.128E-5	0.211761	
1.132E-5	0.211853	
1.136E-5	0.211914	
1.14E-5	0.212006	
1.144E-5	0.212097	
1.148E-5	0.212189	
1.152E-5	0.21228	
1.156E-5	0.212372	
1.16E-5	0.212463	
1.164E-5	0.212524	
1.168E-5	0.212616	
1.172E-5	0.212708	
1.176E-5	0.212799	
1.18E-5	0.212891	
1.184E-5	0.212952	
1.188E-5	0.213043	
1.192E-5	0.213135	
1.196E-5	0.213226	
1.2E-5	0.213318	
1.204E-5	0.213379	
1.208E-5	0.21347	
1.212E-5	0.213562	
1.216E-5	0.213654	
1.22E-5	0.213745	
1.224E-5	0.213837	
1.228E-5	0.213898	
1.232E-5	0.213989	
1.236E-5	0.214081	
1.24E-5	0.214172	
1.244E-5	0.214264	
1.248E-5	0.214325	
1.252E-5	0.214417	
1.256E-5	0.214508	
1.26E-5	0.2146	
1.264E-5	0.214691	
1.268E-5	0.214752	
1.272E-5	0.214844	
1.276E-5	0.214935	
1.28E-5	0.215027	
1.284E-5	0.215118	
1.288E-5	0.215179	
1.292E-5	0.215271	
1.296E-5	0.215363	
1.3E-5	0.215454	
1.304E-5	0.215546	
1.308E-5	0.215607	
1.312E-5	0.215698	
1.316E-5	0.21579	
1.32E-5	0.215881	
1.324E-5	0.215973	
1.328E-5	0.216034	
1.332E-5	0.216125	
1.336E-5	0.216217	
1.34E-5	0.216309	
1.344E-5	0.2164	
1.348E-5	0.216461	
1.352E-5	0.216553	
1.356E-5	0.216644	
1.36E-5	0.216736	
1.364E-5	0.216797	
1.368E-5	0.216888	
1.372E-5	0.21698	
1.376E-5	0.217072	
1.38E-5	0.217133	
1.384E-5	0.217224	
1.388E-5	0.217316	
1.392E-5	0.217407	
1.396E-5	0.217499	
1.4E-5	0.21756	
1.404E-5	0.217651	
1.408E-5	0.217743	
1.412E-5	0.217834	
1.416E-5	0.217896	
1.42E-5	0.217987	
1.424E-5	0.218079	
1.428E-5	0.21817	
1.432E-5	0.218231	
1.436E-5	0.218323	
1.44E-5	0.218414	
1.444E-5	0.218506	
1.448E-5	0.218567	
1.452E-5	0.218658	
1.456E-5	0.21875	
1.46E-5	0.218842	
1.464E-5	0.218903	
1.468E-5	0.218994	
1.472E-5	0.219086	
1.476E-5	0.219177	
1.48E-5	0.219238	
1.484E-5	0.21933	
1.488E-5	0.219421	
1.492E-5	0.219513	
1.496E-5	0.219574	
1.5E-5	0.219666	
1.504E-5	0.219757	
1.508E-5	0.219849	
1.512E-5	0.21991	
1.516E-5	0.220001	
1.52E-5	0.220093	
1.524E-5	0.220184	
1.528E-5	0.220245	
1.532E-5	0.220337	
1.536E-5	0.220428	
1.54E-5	0.22049	
1.544E-5	0.220581	
1.548E-5	0.220673	
1.552E-5	0.220764	
1.556E-5	0.220825	
1.56E-5	0.220917	
1.564E-5	0.221008	
1.568E-5	0.2211	
1.572E-5	0.221161	
1.576E-5	0.221252	
1.58E-5	0.221344	
1.584E-5	0.221405	
1.588E-5	0.221497	
1.592E-5	0.221588	
1.596E-5	0.22168	
1.6E-5	0.221741	
1.604E-5	0.221832	
1.608E-5	0.221924	
1.612E-5	0.221985	
1.616E-5	0.222076	
1.62E-5	0.222168	
1.624E-5	0.22226	
1.628E-5	0.222321	
1.632E-5	0.222412	
1.636E-5	0.222504	
1.64E-5	0.222565	
1.644E-5	0.222656	
1.648E-5	0.222748	
1.652E-5	0.222809	
1.656E-5	0.2229	
1.66E-5	0.222992	
1.664E-5	0.223053	
1.668E-5	0.223145	
1.672E-5	0.223236	
1.676E-5	0.223328	
1.68E-5	0.223389	
1.684E-5	0.22348	
1.688E-5	0.223572	
1.692E-5	0.223633	
1.696E-5	0.223724	
1.7E-5	0.223816	
1.704E-5	0.223877	
1.708E-5	0.223969	
1.712E-5	0.22406	
1.716E-5	0.224121	
1.72E-5	0.224213	
1.724E-5	0.224304	
1.728E-5	0.224365	
1.732E-5	0.224457	
1.736E-5	0.224548	
1.74E-5	0.224609	
1.744E-5	0.224701	
1.748E-5	0.224792	
1.752E-5	0.224854	
1.756E-5	0.224945	
1.76E-5	0.225037	
1.764E-5	0.225098	
1.768E-5	0.225189	
1.772E-5	0.225281	
1.776E-5	0.225342	
1.78E-5	0.225433	
1.784E-5	0.225525	
1.788E-5	0.225586	
1.792E-5	0.225677	
1.796E-5	0.225769	
1.8E-5	0.22583	
1.804E-5	0.225922	
1.808E-5	0.225983	
1.812E-5	0.226074	
1.816E-5	0.226166	
1.82E-5	0.226227	
1.824E-5	0.226318	
1.828E-5	0.22641	
1.832E-5	0.226471	
1.836E-5	0.226562	
1.84E-5	0.226624	
1.844E-5	0.226715	
1.848E-5	0.226807	
1.852E-5	0.226868	
1.856E-5	0.226959	
1.86E-5	0.227051	
1.864E-5	0.227112	
1.868E-5	0.227203	
1.872E-5	0.227264	
1.876E-5	0.227356	
1.88E-5	0.227448	
1.884E-5	0.227509	
1.888E-5	0.2276	
1.892E-5	0.227692	
1.896E-5	0.227753	
1.9E-5	0.227844	
1.904E-5	0.227905	
1.908E-5	0.227997	
1.912E-5	0.228088	
1.916E-5	0.228149	
1.92E-5	0.228241	
1.924E-5	0.228302	
1.928E-5	0.228394	
1.932E-5	0.228485	
1.936E-5	0.228546	
1.94E-5	0.228638	
1.944E-5	0.228699	
1.948E-5	0.22879	
1.952E-5	0.228882	
1.956E-5	0.228943	
1.96E-5	0.229034	
1.964E-5	0.229095	
1.968E-5	0.229187	
1.972E-5	0.229279	
1.976E-5	0.22934	
1.98E-5	0.229431	
1.984E-5	0.229492	
1.988E-5	0.229584	
1.992E-5	0.229675	
1.996E-5	0.229736	
2E-5	0.229828	
2.004E-5	0.229889	
2.008E-5	0.22998	
2.012E-5	0.230042	
2.016E-5	0.230133	
2.02E-5	0.230225	
2.024E-5	0.230286	
2.028E-5	0.230377	
2.032E-5	0.230438	
2.036E-5	0.23053	
2.04E-5	0.230591	
2.044E-5	0.230682	
2.048E-5	0.230774	
2.052E-5	0.230835	
2.056E-5	0.230927	
2.06E-5	0.230988	
2.064E-5	0.231079	
2.068E-5	0.23114	
2.072E-5	0.231232	
2.076E-5	0.231323	
2.08E-5	0.231384	
2.084E-5	0.231476	
2.088E-5	0.231537	
2.092E-5	0.231628	
2.096E-5	0.231689	
2.1E-5	0.231781	
2.104E-5	0.231873	
2.108E-5	0.231934	
2.112E-5	0.232025	
2.116E-5	0.232086	
2.12E-5	0.232178	
2.124E-5	0.232239	
2.128E-5	0.23233	
2.132E-5	0.232391	
2.136E-5	0.232483	
2.14E-5	0.232574	
2.144E-5	0.232635	
2.148E-5	0.232727	
2.152E-5	0.232788	
2.156E-5	0.23288	
2.16E-5	0.232941	
2.164E-5	0.233032	
2.168E-5	0.233093	
2.172E-5	0.233185	
2.176E-5	0.233246	
2.18E-5	0.233337	
2.184E-5	0.233429	
2.188E-5	0.23349	
2.192E-5	0.233582	
2.196E-5	0.233643	
2.2E-5	0.233734	
2.204E-5	0.233795	
2.208E-5	0.233887	
2.212E-5	0.233948	
2.216E-5	0.234039	
2.22E-5	0.2341	
2.224E-5	0.234192	
2.228E-5	0.234253	
2.232E-5	0.234344	
2.236E-5	0.234406	
2.24E-5	0.234497	
2.244E-5	0.234558	
2.248E-5	0.23465	
2.252E-5	6.10352E-5	
2.256E-5	0.00012207	
2.26E-5	0.000213623	
2.264E-5	0.000274658	
2.268E-5	0.000366211	
2.272E-5	0.00421143	
2.276E-5	0.00628662	
2.28E-5	0.00787354	
2.284E-5	0.00921631	
2.288E-5	0.010437	
2.292E-5	0.0115356	
2.296E-5	0.0125122	
2.3E-5	0.0134277	
2.304E-5	0.0143127	
2.308E-5	0.0151367	
2.312E-5	0.0159302	
2.316E-5	0.0166931	
2.32E-5	0.0174255	
2.324E-5	0.018158	
2.328E-5	0.0188599	
2.332E-5	0.0195007	
2.336E-5	0.0201721	
2.34E-5	0.020813	
2.344E-5	0.0214844	
2.348E-5	0.0221558	
2.352E-5	0.0228271	
2.356E-5	0.0234985	
2.36E-5	0.0242004	
2.364E-5	0.0248718	
2.368E-5	0.0255737	
2.372E-5	0.0263062	
2.376E-5	0.0270081	
2.38E-5	0.02771	
2.384E-5	0.0284424	
2.388E-5	0.0291748	
2.392E-5	0.0298767	
2.396E-5	0.0306396	
2.4E-5	0.0313721	
2.404E-5	0.0321045	
2.408E-5	0.0328674	
2.412E-5	0.0336304	
2.416E-5	0.0343933	
2.42E-5	0.0351562	
2.424E-5	0.0359192	
2.428E-5	0.0366821	
2.432E-5	0.0374451	
2.436E-5	0.038208	
2.44E-5	0.0389709	
2.444E-5	0.0397644	
2.448E-5	0.0405273	
2.452E-5	0.0412903	
2.456E-5	0.0420532	
2.46E-5	0.0428162	
2.464E-5	0.0436096	
2.468E-5	0.0443726	
2.472E-5	0.0451355	
2.476E-5	0.045929	
2.48E-5	0.0466919	
2.484E-5	0.0474548	
2.488E-5	0.0482178	
2.492E-5	0.0490112	
2.496E-5	0.0497742	
2.5E-5	0.0505371	
2.504E-5	0.0513	
2.508E-5	0.0520935	
2.512E-5	0.0528564	
2.516E-5	0.0536194	
2.52E-5	0.0543823	
2.524E-5	0.0551453	
2.528E-5	0.0559082	
2.532E-5	0.0566711	
2.536E-5	0.0574341	
2.54E-5	0.058197	
2.544E-5	0.05896	
2.548E-5	0.0597229	
2.552E-5	0.0604553	
2.556E-5	0.0612183	
2.56E-5	0.0619812	
2.564E-5	0.0627136	
2.568E-5	0.0634766	
2.572E-5	0.064209	
2.576E-5	0.0649414	
2.58E-5	0.0657043	
2.584E-5	0.0664368	
2.588E-5	0.0671692	
2.592E-5	0.0679016	
2.596E-5	0.068634	
2.6E-5	0.0693665	
2.604E-5	0.0700989	
2.608E-5	0.0708313	
2.612E-5	0.0715637	
2.616E-5	0.0722961	
2.62E-5	0.0730286	
2.624E-5	0.073761	
2.628E-5	0.0744629	
2.632E-5	0.0751953	
2.636E-5	0.0758972	
2.64E-5	0.0766296	
2.644E-5	0.0773315	
2.648E-5	0.078064	
2.652E-5	0.0787659	
2.656E-5	0.0794983	
2.66E-5	0.0802002	
2.664E-5	0.0809021	
2.668E-5	0.081604	
2.672E-5	0.0823059	
2.676E-5	0.0830078	
2.68E-5	0.0837097	
2.684E-5	0.0844116	
2.688E-5	0.0851135	
2.692E-5	0.0857849	
2.696E-5	0.0864868	
2.7E-5	0.0871887	
2.704E-5	0.0878601	
2.708E-5	0.088562	
2.712E-5	0.0892334	
2.716E-5	0.0899048	
2.72E-5	0.0906067	
2.724E-5	0.0912781	
2.728E-5	0.0919495	
2.732E-5	0.0926208	
2.736E-5	0.0932922	
2.74E-5	0.0939636	
2.744E-5	0.094635	
2.748E-5	0.0953064	
2.752E-5	0.0959778	
2.756E-5	0.0966187	
2.76E-5	0.09729	
2.764E-5	0.0979614	
2.768E-5	0.0986023	
2.772E-5	0.0992432	
2.776E-5	0.0999146	
2.78E-5	0.100555	
2.784E-5	0.101196	
2.788E-5	0.101837	
2.792E-5	0.102509	
2.796E-5	0.103149	
2.8E-5	0.10379	
2.804E-5	0.104431	
2.808E-5	0.105072	
2.812E-5	0.105713	
2.816E-5	0.106323	
2.82E-5	0.106964	
2.824E-5	0.107605	
2.828E-5	0.108246	
2.832E-5	0.108856	
2.836E-5	0.109497	
2.84E-5	0.110138	
2.844E-5	0.110748	
2.848E-5	0.111359	
2.852E-5	0.112	
2.856E-5	0.11261	
2.86E-5	0.11322	
2.864E-5	0.113861	
2.868E-5	0.114471	
2.872E-5	0.115082	
2.876E-5	0.115692	
2.88E-5	0.116302	
2.884E-5	0.116913	
2.888E-5	0.117523	
2.892E-5	0.118134	
2.896E-5	0.118744	
2.9E-5	0.119354	
2.904E-5	0.119965	
2.908E-5	0.120544	
2.912E-5	0.121155	
2.916E-5	0.121765	
2.92E-5	0.122345	
2.924E-5	0.122955	
2.928E-5	0.123535	
2.932E-5	0.124115	
2.936E-5	0.124725	
2.94E-5	0.125305	
2.944E-5	0.125885	
2.948E-5	0.126465	
2.952E-5	0.127075	
2.956E-5	0.127655	
2.96E-5	0.128235	
2.964E-5	0.128815	
2.968E-5	0.129395	
2.972E-5	0.129974	
2.976E-5	0.130554	
2.98E-5	0.131104	
2.984E-5	0.131683	
2.988E-5	0.132263	
2.992E-5	0.132843	
2.996E-5	0.133392	
3E-5	0.133972	
3.004E-5	0.134552	
3.008E-5	0.135101	
3.012E-5	0.135681	
3.016E-5	0.13623	
3.02E-5	0.13681	
3.024E-5	0.13736	
3.028E-5	0.137939	
3.032E-5	0.138489	
3.036E-5	0.139069	
3.04E-5	0.139618	
3.044E-5	0.140167	
3.048E-5	0.140717	
3.052E-5	0.141296	
3.056E-5	0.141846	
3.06E-5	0.142395	
3.064E-5	0.142944	
3.068E-5	0.143494	
3.072E-5	0.144043	
3.076E-5	0.144592	
3.08E-5	0.145142	
3.084E-5	0.145691	
3.088E-5	0.14624	
3.092E-5	0.14679	
3.096E-5	0.147339	
3.1E-5	0.147888	
3.104E-5	0.148437	
3.108E-5	0.148956	
3.112E-5	0.149506	
3.116E-5	0.150055	
3.12E-5	0.150574	
3.124E-5	0.151123	
3.128E-5	0.151672	
3.132E-5	0.152191	
3.136E-5	0.15274	
3.14E-5	0.153259	
3.144E-5	0.153809	
3.148E-5	0.154327	
3.152E-5	0.154877	
3.156E-5	0.155396	
3.16E-5	0.155914	
3.164E-5	0.156464	
3.168E-5	0.156982	
3.172E-5	0.157501	
3.176E-5	0.15802	
3.18E-5	0.158569	
3.184E-5	0.159088	
3.188E-5	0.159607	
3.192E-5	0.160126	
3.196E-5	0.160645	
3.2E-5	0.161163	
3.204E-5	0.161682	
3.208E-5	0.162201	
3.212E-5	0.16272	
3.216E-5	0.163239	
3.22E-5	0.163757	
3.224E-5	0.164276	
3.228E-5	0.164764	
3.232E-5	0.165283	
3.236E-5	0.165802	
3.24E-5	0.166321	
3.244E-5	0.166809	
3.248E-5	0.167328	
3.252E-5	0.167847	
3.256E-5	0.168365	
3.26E-5	0.168854	
3.264E-5	0.169373	
3.268E-5	0.169861	
3.272E-5	0.17038	
3.276E-5	0.170868	
3.28E-5	0.171387	
3.284E-5	0.171875	
3.288E-5	0.172394	
3.292E-5	0.172882	
3.296E-5	0.173401	
3.3E-5	0.173889	
3.304E-5	0.174377	
3.308E-5	0.174896	
3.312E-5	0.175385	
3.316E-5	0.175873	
3.32E-5	0.176361	
3.324E-5	0.17688	
3.328E-5	0.177368	
3.332E-5	0.177856	
3.336E-5	0.178345	
3.34E-5	0.178833	
3.344E-5	0.179321	
3.348E-5	0.17981	
3.352E-5	0.180298	
3.356E-5	0.180786	
3.36E-5	0.181274	
3.364E-5	0.181763	
3.368E-5	0.182251	
3.372E-5	0.182739	
3.376E-5	0.183228	
3.38E-5	0.183716	
3.384E-5	0.184204	
3.388E-5	0.184692	
3.392E-5	0.18515	
3.396E-5	0.185638	
3.4E-5	0.186127	
3.404E-5	0.186615	
3.408E-5	0.187073	
3.412E-5	0.187561	
3.416E-5	0.188049	
3.42E-5	0.188538	
3.424E-5	0.188995	
3.428E-5	0.189484	
3.432E-5	0.189941	
3.436E-5	0.19043	
3.44E-5	0.190918	
3.444E-5	0.191376	
3.448E-5	0.191864	
3.452E-5	0.192322	
3.456E-5	0.19281	
3.46E-5	0.193268	
3.464E-5	0.193756	
3.468E-5	0.194214	
3.472E-5	0.194672	
3.476E-5	0.19516	
3.48E-5	0.195618	
3.484E-5	0.196075	
3.488E-5	0.196564	
3.492E-5	0.197021	
3.496E-5	0.197479	
3.5E-5	0.197937	
3.504E-5	0.198425	
3.508E-5	0.198883	
3.512E-5	0.199341	
3.516E-5	0.199799	
3.52E-5	0.200256	
3.524E-5	0.200714	
3.528E-5	0.201172	
3.532E-5	0.20163	
3.536E-5	0.202087	
3.54E-5	0.202545	
3.544E-5	0.203003	
3.548E-5	0.203461	
3.552E-5	0.203918	
3.556E-5	0.204376	
3.56E-5	0.204834	
3.564E-5	0.205292	
3.568E-5	0.20575	
3.572E-5	0.206177	
3.576E-5	0.206635	
3.58E-5	0.207092	
3.584E-5	0.20755	
3.588E-5	0.208008	
3.592E-5	0.208435	
3.596E-5	0.208893	
3.6E-5	0.209351	
3.604E-5	0.209778	
3.608E-5	0.210236	
3.612E-5	0.210693	
3.616E-5	0.211121	
3.62E-5	0.211578	
3.624E-5	0.212006	
3.628E-5	0.212463	
3.632E-5	0.212921	
3.636E-5	0.213348	
3.64E-5	0.213776	
3.644E-5	0.214233	
3.648E-5	0.214661	
3.652E-5	0.215118	
3.656E-5	0.215546	
3.66E-5	0.216003	
3.664E-5	0.216431	
3.668E-5	0.216858	
3.672E-5	0.217316	
3.676E-5	0.217743	
3.68E-5	0.218201	
3.684E-5	0.218628	
3.688E-5	0.219055	
3.692E-5	0.219513	
3.696E-5	0.21994	
3.7E-5	0.220367	
3.704E-5	0.220795	
3.708E-5	0.221222	
3.712E-5	0.22168	
3.716E-5	0.222107	
3.72E-5	0.222534	
3.724E-5	0.222961	
3.728E-5	0.223389	
3.732E-5	0.223816	
3.736E-5	0.224243	
3.74E-5	0.22467	
3.744E-5	0.225098	
3.748E-5	0.225525	
3.752E-5	0.225952	
3.756E-5	0.226379	
3.76E-5	0.226807	
3.764E-5	0.227234	
3.768E-5	0.227661	
3.772E-5	0.228088	
3.776E-5	0.228516	
3.78E-5	0.228943	
3.784E-5	0.22937	
3.788E-5	0.229797	
3.792E-5	0.230194	
3.796E-5	0.230621	
3.8E-5	0.231049	
3.804E-5	0.231476	
3.808E-5	0.231873	
3.812E-5	0.2323	
3.816E-5	0.232727	
3.82E-5	0.233154	
3.824E-5	0.233551	
3.828E-5	0.233978	
3.832E-5	0.234406	
3.836E-5	0.234833	
3.84E-5	0.235229	
3.844E-5	0.235657	
3.848E-5	0.236053	
3.852E-5	0.236481	
3.856E-5	0.236908	
3.86E-5	0.237305	
3.864E-5	0.237732	
3.868E-5	0.238129	
3.872E-5	0.238556	
3.876E-5	0.238953	
3.88E-5	0.23938	
3.884E-5	0.239777	
3.888E-5	0.240204	
3.892E-5	0.240601	
3.896E-5	0.240997	
3.9E-5	0.241425	
3.904E-5	0.241821	
3.908E-5	0.242218	
3.912E-5	0.242645	
3.916E-5	0.243042	
3.92E-5	0.243439	
3.924E-5	0.243866	
3.928E-5	0.244263	
3.932E-5	0.244659	
3.936E-5	0.245087	
3.94E-5	0.245483	
3.944E-5	0.24588	
3.948E-5	0.246277	
3.952E-5	0.246704	
3.956E-5	0.247101	
3.96E-5	0.247498	
3.964E-5	0.247894	
3.968E-5	0.248291	
3.972E-5	0.248688	
3.976E-5	0.249115	
3.98E-5	0.249512	
3.984E-5	0.249908	
3.988E-5	0.250305	
3.992E-5	0.250702	
3.996E-5	0.251099	
4E-5	0.251495	
4.004E-5	0.251892	
4.008E-5	0.252289	
4.012E-5	0.252686	
4.016E-5	0.253082	
4.02E-5	0.253479	
4.024E-5	0.253876	
4.028E-5	0.254272	
4.032E-5	0.254669	
4.036E-5	0.255066	
4.04E-5	0.255463	
4.044E-5	0.255859	
4.048E-5	0.256256	
4.052E-5	0.256653	
4.056E-5	0.257019	
4.06E-5	0.257416	
4.064E-5	0.257812	
4.068E-5	0.258209	
4.072E-5	0.258606	
4.076E-5	0.259003	
4.08E-5	0.259369	
4.084E-5	0.259766	
4.088E-5	0.260162	
4.092E-5	0.260559	
